##TITLE=No Description
##DATA TYPE=INFRARED SPECTRUM
##XUNITS=1/CM
##YUNITS=%T
399.264912  	33.676358 
401.193728  	12.363453 
403.122544  	15.178020 
405.051360  	20.366793 
406.980176  	20.935692 
408.908992  	22.068024 
410.837808  	23.355408 
412.766624  	23.540869 
414.695440  	21.678711 
416.624256  	16.999003 
418.553072  	17.368301 
420.481888  	23.594106 
422.410704  	22.704525 
424.339520  	23.215679 
426.268336  	23.859658 
428.197152  	23.912985 
430.125968  	25.504162 
432.054784  	25.147560 
433.983600  	24.475001 
435.912416  	25.391084 
437.841232  	26.024237 
439.770048  	25.899304 
441.698864  	26.110497 
443.627680  	27.551841 
445.556496  	27.448765 
447.485312  	27.209232 
449.414128  	27.825361 
451.342944  	28.987296 
453.271760  	28.862392 
455.200576  	29.192332 
457.129392  	29.115446 
459.058208  	29.436955 
460.987024  	30.701090 
462.915840  	30.786386 
464.844656  	30.667729 
466.773472  	30.803461 
468.702288  	30.764795 
470.631104  	31.013906 
472.559920  	30.935190 
474.488736  	31.076203 
476.417552  	31.719981 
478.346368  	32.029959 
480.275184  	32.223364 
482.204000  	32.336514 
484.132816  	32.184613 
486.061632  	32.390249 
487.990448  	32.575444 
489.919264  	33.050060 
491.848080  	32.864442 
493.776896  	32.364759 
495.705712  	31.867402 
497.634528  	32.215291 
499.563344  	31.929618 
501.492160  	31.424895 
503.420976  	31.053446 
505.349792  	30.287566 
507.278608  	29.833447 
509.207424  	29.900098 
511.136240  	29.774119 
513.065056  	29.451856 
514.993872  	29.126625 
516.922688  	28.591592 
518.851504  	28.204533 
520.780320  	27.807144 
522.709136  	27.152926 
524.637952  	26.905130 
526.566768  	27.074245 
528.495584  	27.057393 
530.424400  	26.392110 
532.353216  	26.006062 
534.282032  	26.235606 
536.210848  	26.113786 
538.139664  	25.726259 
540.068480  	25.508102 
541.997296  	25.423723 
543.926112  	25.260360 
545.854928  	25.337829 
547.783744  	25.351700 
549.712560  	25.396081 
551.641376  	25.720297 
553.570192  	26.001809 
555.499008  	26.152103 
557.427824  	26.807518 
559.356640  	27.353620 
561.285456  	27.641463 
563.214272  	27.947431 
565.143088  	28.487700 
567.071904  	28.880023 
569.000720  	29.092039 
570.929536  	29.510661 
572.858352  	29.820631 
574.787168  	30.029362 
576.715984  	30.544881 
578.644800  	30.942361 
580.573616  	31.291142 
582.502432  	31.758162 
584.431248  	32.438209 
586.360064  	32.850866 
588.288880  	33.134926 
590.217696  	33.738848 
592.146512  	34.374718 
594.075328  	34.696447 
596.004144  	34.986842 
597.932960  	35.446988 
599.861776  	36.041570 
601.790592  	36.610391 
603.719408  	36.982416 
605.648224  	37.135359 
607.577040  	37.549792 
609.505856  	37.946184 
611.434672  	38.143856 
613.363488  	38.603205 
615.292304  	38.969327 
617.221120  	39.090133 
619.149936  	39.491900 
621.078752  	39.759762 
623.007568  	40.118938 
624.936384  	40.557642 
626.865200  	40.920967 
628.794016  	41.464017 
630.722832  	42.006595 
632.651648  	42.697056 
634.580464  	43.408007 
636.509280  	44.171280 
638.438096  	44.871233 
640.366912  	45.663195 
642.295728  	46.543761 
644.224544  	47.220949 
646.153360  	47.930614 
648.082176  	48.642801 
650.010992  	49.105064 
651.939808  	49.513411 
653.868624  	50.034476 
655.797440  	50.611721 
657.726256  	51.015446 
659.655072  	51.154187 
661.583888  	51.470046 
663.512704  	51.978814 
665.441520  	52.228948 
667.370336  	52.973583 
669.299152  	53.953768 
671.227968  	53.498759 
673.156784  	53.527496 
675.085600  	53.986161 
677.014416  	54.400857 
678.943232  	54.640151 
680.872048  	54.793012 
682.800864  	55.005428 
684.729680  	55.318170 
686.658496  	55.484888 
688.587312  	55.793724 
690.516128  	56.203710 
692.444944  	56.539394 
694.373760  	56.820902 
696.302576  	57.067364 
698.231392  	57.365849 
700.160208  	57.812406 
702.089024  	58.192809 
704.017840  	58.560753 
705.946656  	58.938743 
707.875472  	59.366435 
709.804288  	59.665807 
711.733104  	59.838604 
713.661920  	60.183845 
715.590736  	60.624008 
717.519552  	60.988770 
719.448368  	61.394905 
721.377184  	61.825219 
723.306000  	62.186305 
725.234816  	62.749400 
727.163632  	63.327492 
729.092448  	63.728679 
731.021264  	64.181112 
732.950080  	64.785185 
734.878896  	65.454399 
736.807712  	66.038567 
738.736528  	66.592266 
740.665344  	67.240947 
742.594160  	67.856460 
744.522976  	68.369135 
746.451792  	68.783499 
748.380608  	69.064529 
750.309424  	69.518673 
752.238240  	69.884562 
754.167056  	70.134047 
756.095872  	70.310922 
758.024688  	70.483027 
759.953504  	70.807137 
761.882320  	71.063752 
763.811136  	71.095295 
765.739952  	71.170169 
767.668768  	71.348239 
769.597584  	71.566703 
771.526400  	71.613126 
773.455216  	71.603596 
775.384032  	71.802574 
777.312848  	71.996871 
779.241664  	71.985952 
781.170480  	71.979244 
783.099296  	71.874852 
785.028112  	71.880749 
786.956928  	71.932786 
788.885744  	71.956801 
790.814560  	72.149022 
792.743376  	72.223924 
794.672192  	72.097586 
796.601008  	72.028801 
798.529824  	71.998857 
800.458640  	71.931450 
802.387456  	71.940235 
804.316272  	71.927738 
806.245088  	71.692906 
808.173904  	71.510815 
810.102720  	71.342486 
812.031536  	71.156422 
813.960352  	71.031490 
815.889168  	70.823904 
817.817984  	70.565769 
819.746800  	70.339264 
821.675616  	70.205459 
823.604432  	70.262524 
825.533248  	70.261822 
827.462064  	70.205823 
829.390880  	70.188654 
831.319696  	70.123771 
833.248512  	69.999785 
835.177328  	69.913339 
837.106144  	69.966205 
839.034960  	70.047468 
840.963776  	69.926941 
842.892592  	69.830253 
844.821408  	69.965413 
846.750224  	70.149282 
848.679040  	70.183577 
850.607856  	70.216635 
852.536672  	70.293702 
854.465488  	70.569802 
856.394304  	70.879148 
858.323120  	71.163894 
860.251936  	71.434171 
862.180752  	71.792679 
864.109568  	72.195857 
866.038384  	72.477667 
867.967200  	72.810688 
869.896016  	73.063697 
871.824832  	73.138890 
873.753648  	73.192663 
875.682464  	73.168931 
877.611280  	73.103819 
879.540096  	73.031148 
881.468912  	72.971457 
883.397728  	72.779815 
885.326544  	72.616170 
887.255360  	72.627986 
889.184176  	72.589803 
891.112992  	72.553073 
893.041808  	72.595344 
894.970624  	72.578348 
896.899440  	72.654820 
898.828256  	72.745474 
900.757072  	72.861524 
902.685888  	72.967094 
904.614704  	72.945650 
906.543520  	72.990574 
908.472336  	73.054260 
910.401152  	73.064470 
912.329968  	73.033571 
914.258784  	72.975640 
916.187600  	73.054178 
918.116416  	73.180357 
920.045232  	73.328102 
921.974048  	73.543440 
923.902864  	73.746055 
925.831680  	73.925263 
927.760496  	74.203154 
929.689312  	74.510689 
931.618128  	74.930167 
933.546944  	75.296793 
935.475760  	75.570721 
937.404576  	75.921329 
939.333392  	76.281359 
941.262208  	76.453094 
943.191024  	76.548577 
945.119840  	76.701283 
947.048656  	76.808243 
948.977472  	76.910253 
950.906288  	77.084123 
952.835104  	77.294575 
954.763920  	77.302555 
956.692736  	77.140883 
958.621552  	76.815466 
960.550368  	76.468151 
962.479184  	76.389374 
964.408000  	76.498037 
966.336816  	76.422571 
968.265632  	76.176091 
970.194448  	75.932846 
972.123264  	75.525412 
974.052080  	74.995245 
975.980896  	74.526632 
977.909712  	74.088197 
979.838528  	73.734440 
981.767344  	73.516117 
983.696160  	73.356070 
985.624976  	73.176905 
987.553792  	73.000522 
989.482608  	72.868182 
991.411424  	72.743154 
993.340240  	72.619923 
995.269056  	72.464655 
997.197872  	72.304965 
999.126688  	72.193927 
1001.055504  	72.093620 
1002.984320  	71.956178 
1004.913136  	71.802403 
1006.841952  	71.662098 
1008.770768  	71.481360 
1010.699584  	71.275559 
1012.628400  	71.082110 
1014.557216  	70.864005 
1016.486032  	70.644206 
1018.414848  	70.446620 
1020.343664  	70.313158 
1022.272480  	70.101971 
1024.201296  	69.783798 
1026.130112  	69.490491 
1028.058928  	69.319630 
1029.987744  	69.120347 
1031.916560  	68.900703 
1033.845376  	68.656327 
1035.774192  	68.503013 
1037.703008  	68.344150 
1039.631824  	68.132839 
1041.560640  	67.998761 
1043.489456  	67.821560 
1045.418272  	67.661081 
1047.347088  	67.573903 
1049.275904  	67.541721 
1051.204720  	67.514747 
1053.133536  	67.462224 
1055.062352  	67.467749 
1056.991168  	67.423601 
1058.919984  	67.395656 
1060.848800  	67.430695 
1062.777616  	67.373957 
1064.706432  	67.260353 
1066.635248  	67.163052 
1068.564064  	67.140966 
1070.492880  	67.093377 
1072.421696  	66.950744 
1074.350512  	66.624566 
1076.279328  	66.304119 
1078.208144  	66.028944 
1080.136960  	65.669435 
1082.065776  	65.293834 
1083.994592  	64.929322 
1085.923408  	64.623314 
1087.852224  	64.456172 
1089.781040  	64.301157 
1091.709856  	64.189547 
1093.638672  	64.221441 
1095.567488  	64.380152 
1097.496304  	64.592006 
1099.425120  	64.899474 
1101.353936  	65.284731 
1103.282752  	65.792246 
1105.211568  	66.378599 
1107.140384  	66.897160 
1109.069200  	67.379882 
1110.998016  	67.895933 
1112.926832  	68.399896 
1114.855648  	68.855203 
1116.784464  	69.255829 
1118.713280  	69.628597 
1120.642096  	69.981448 
1122.570912  	70.294311 
1124.499728  	70.578411 
1126.428544  	70.850821 
1128.357360  	71.210655 
1130.286176  	71.635450 
1132.214992  	72.081905 
1134.143808  	72.653889 
1136.072624  	73.496202 
1138.001440  	74.371511 
1139.930256  	75.226938 
1141.859072  	76.232351 
1143.787888  	77.359570 
1145.716704  	78.553605 
1147.645520  	79.780370 
1149.574336  	80.842949 
1151.503152  	81.544255 
1153.431968  	81.875138 
1155.360784  	81.966419 
1157.289600  	81.859934 
1159.218416  	81.649994 
1161.147232  	81.380251 
1163.076048  	81.112759 
1165.004864  	80.773214 
1166.933680  	80.490992 
1168.862496  	80.145858 
1170.791312  	79.766333 
1172.720128  	79.437643 
1174.648944  	79.223235 
1176.577760  	78.987084 
1178.506576  	78.672456 
1180.435392  	78.418313 
1182.364208  	78.195616 
1184.293024  	77.929088 
1186.221840  	77.660043 
1188.150656  	77.474213 
1190.079472  	77.255965 
1192.008288  	77.059934 
1193.937104  	76.924805 
1195.865920  	76.806346 
1197.794736  	76.686410 
1199.723552  	76.567541 
1201.652368  	76.473417 
1203.581184  	76.396271 
1205.510000  	76.330155 
1207.438816  	76.268962 
1209.367632  	76.181949 
1211.296448  	76.118008 
1213.225264  	76.071499 
1215.154080  	76.051299 
1217.082896  	76.102143 
1219.011712  	76.103056 
1220.940528  	76.094641 
1222.869344  	76.123783 
1224.798160  	76.176426 
1226.726976  	76.245576 
1228.655792  	76.317840 
1230.584608  	76.394423 
1232.513424  	76.462398 
1234.442240  	76.534011 
1236.371056  	76.628927 
1238.299872  	76.696020 
1240.228688  	76.708337 
1242.157504  	76.707148 
1244.086320  	76.728489 
1246.015136  	76.770706 
1247.943952  	76.889244 
1249.872768  	77.017024 
1251.801584  	77.022294 
1253.730400  	76.850661 
1255.659216  	76.640269 
1257.588032  	76.475146 
1259.516848  	76.362768 
1261.445664  	76.259838 
1263.374480  	76.097264 
1265.303296  	75.902490 
1267.232112  	75.670466 
1269.160928  	75.383069 
1271.089744  	75.064767 
1273.018560  	74.751633 
1274.947376  	74.475443 
1276.876192  	74.177317 
1278.805008  	73.918847 
1280.733824  	73.707182 
1282.662640  	73.546371 
1284.591456  	73.367480 
1286.520272  	73.145028 
1288.449088  	72.989321 
1290.377904  	72.841782 
1292.306720  	72.688274 
1294.235536  	72.568496 
1296.164352  	72.452443 
1298.093168  	72.330805 
1300.021984  	72.216116 
1301.950800  	72.120831 
1303.879616  	72.011656 
1305.808432  	71.887965 
1307.737248  	71.777154 
1309.666064  	71.681006 
1311.594880  	71.526312 
1313.523696  	71.408238 
1315.452512  	71.352346 
1317.381328  	71.272935 
1319.310144  	71.199477 
1321.238960  	71.134789 
1323.167776  	71.107354 
1325.096592  	71.099233 
1327.025408  	71.084365 
1328.954224  	71.077745 
1330.883040  	71.113330 
1332.811856  	71.153305 
1334.740672  	71.183157 
1336.669488  	71.201637 
1338.598304  	71.265900 
1340.527120  	71.521906 
1342.455936  	71.797193 
1344.384752  	71.996028 
1346.313568  	72.241146 
1348.242384  	72.501132 
1350.171200  	72.735704 
1352.100016  	72.971965 
1354.028832  	73.214755 
1355.957648  	73.492041 
1357.886464  	73.678070 
1359.815280  	73.722425 
1361.744096  	73.800440 
1363.672912  	74.096635 
1365.601728  	74.241700 
1367.530544  	74.345603 
1369.459360  	74.631627 
1371.388176  	74.838817 
1373.316992  	74.923199 
1375.245808  	75.206612 
1377.174624  	75.489938 
1379.103440  	75.849287 
1381.032256  	76.137892 
1382.961072  	76.218806 
1384.889888  	76.111498 
1386.818704  	76.073563 
1388.747520  	76.086424 
1390.676336  	75.919677 
1392.605152  	75.604469 
1394.533968  	75.101685 
1396.462784  	74.446536 
1398.391600  	73.845333 
1400.320416  	73.256593 
1402.249232  	72.588631 
1404.178048  	71.940444 
1406.106864  	71.434232 
1408.035680  	71.048940 
1409.964496  	70.661592 
1411.893312  	70.341518 
1413.822128  	70.127878 
1415.750944  	69.855626 
1417.679760  	69.539452 
1419.608576  	69.701847 
1421.537392  	69.722647 
1423.466208  	69.696348 
1425.395024  	69.865056 
1427.323840  	69.832814 
1429.252656  	69.846488 
1431.181472  	70.042023 
1433.110288  	70.149292 
1435.039104  	70.142580 
1436.967920  	70.638012 
1438.896736  	71.029917 
1440.825552  	71.186096 
1442.754368  	71.494073 
1444.683184  	71.756835 
1446.612000  	71.974535 
1448.540816  	72.347328 
1450.469632  	72.681172 
1452.398448  	72.994552 
1454.327264  	73.128086 
1456.256080  	73.332872 
1458.184896  	74.264848 
1460.113712  	74.860719 
1462.042528  	75.176122 
1463.971344  	75.326875 
1465.900160  	75.503272 
1467.828976  	75.703213 
1469.757792  	75.833521 
1471.686608  	76.092794 
1473.615424  	76.602075 
1475.544240  	76.735811 
1477.473056  	76.867385 
1479.401872  	76.939961 
1481.330688  	77.112145 
1483.259504  	77.252060 
1485.188320  	77.240722 
1487.117136  	77.206991 
1489.045952  	77.189630 
1490.974768  	77.484360 
1492.903584  	77.573658 
1494.832400  	77.427423 
1496.761216  	77.369577 
1498.690032  	77.415863 
1500.618848  	77.457657 
1502.547664  	77.413157 
1504.476480  	77.191004 
1506.405296  	76.970756 
1508.334112  	77.107103 
1510.262928  	77.242323 
1512.191744  	77.308555 
1514.120560  	77.209957 
1516.049376  	77.057322 
1517.978192  	76.986300 
1519.907008  	76.720947 
1521.835824  	76.658864 
1523.764640  	76.773999 
1525.693456  	76.828387 
1527.622272  	76.929885 
1529.551088  	76.984562 
1531.479904  	76.825970 
1533.408720  	76.750511 
1535.337536  	76.803297 
1537.266352  	76.582406 
1539.195168  	76.255799 
1541.123984  	76.288754 
1543.052800  	76.404630 
1544.981616  	76.661276 
1546.910432  	76.751294 
1548.839248  	76.624397 
1550.768064  	76.558316 
1552.696880  	76.407858 
1554.625696  	76.263645 
1556.554512  	75.992818 
1558.483328  	75.828332 
1560.412144  	76.452154 
1562.340960  	76.329069 
1564.269776  	76.271315 
1566.198592  	76.233431 
1568.127408  	76.035535 
1570.056224  	76.064787 
1571.985040  	76.099087 
1573.913856  	75.869486 
1575.842672  	75.801510 
1577.771488  	75.971422 
1579.700304  	75.951244 
1581.629120  	75.939694 
1583.557936  	75.917057 
1585.486752  	75.852206 
1587.415568  	75.768515 
1589.344384  	75.680720 
1591.273200  	75.573743 
1593.202016  	75.481124 
1595.130832  	75.441040 
1597.059648  	75.427683 
1598.988464  	75.349190 
1600.917280  	75.225022 
1602.846096  	75.116547 
1604.774912  	75.083555 
1606.703728  	74.999104 
1608.632544  	74.897223 
1610.561360  	74.849634 
1612.490176  	74.755968 
1614.418992  	74.503857 
1616.347808  	74.383042 
1618.276624  	74.497075 
1620.205440  	74.363790 
1622.134256  	74.227646 
1624.063072  	74.217330 
1625.991888  	74.151650 
1627.920704  	74.178125 
1629.849520  	74.263358 
1631.778336  	74.118261 
1633.707152  	73.851418 
1635.635968  	73.793633 
1637.564784  	74.041295 
1639.493600  	74.065147 
1641.422416  	74.122129 
1643.351232  	73.987214 
1645.280048  	73.737140 
1647.208864  	73.909231 
1649.137680  	74.062018 
1651.066496  	73.808655 
1652.995312  	74.105517 
1654.924128  	74.640178 
1656.852944  	74.655911 
1658.781760  	74.661020 
1660.710576  	74.587396 
1662.639392  	74.717941 
1664.568208  	74.964928 
1666.497024  	74.910313 
1668.425840  	74.916150 
1670.354656  	75.179049 
1672.283472  	75.317395 
1674.212288  	75.368239 
1676.141104  	75.659354 
1678.069920  	75.688943 
1679.998736  	75.675260 
1681.927552  	75.531903 
1683.856368  	75.578998 
1685.785184  	75.974634 
1687.714000  	76.035364 
1689.642816  	76.225861 
1691.571632  	76.370118 
1693.500448  	76.224637 
1695.429264  	76.162178 
1697.358080  	76.147561 
1699.286896  	76.158092 
1701.215712  	76.662722 
1703.144528  	76.610412 
1705.073344  	76.654641 
1707.002160  	76.877257 
1708.930976  	76.959207 
1710.859792  	76.946379 
1712.788608  	76.874060 
1714.717424  	76.750632 
1716.646240  	76.808583 
1718.575056  	77.199591 
1720.503872  	77.336613 
1722.432688  	77.390102 
1724.361504  	77.510109 
1726.290320  	77.522461 
1728.219136  	77.433984 
1730.147952  	77.349639 
1732.076768  	77.178221 
1734.005584  	77.305707 
1735.934400  	77.567004 
1737.863216  	77.453352 
1739.792032  	77.494402 
1741.720848  	77.525339 
1743.649664  	77.529720 
1745.578480  	77.447616 
1747.507296  	77.340695 
1749.436112  	77.328597 
1751.364928  	77.534031 
1753.293744  	77.614731 
1755.222560  	77.565930 
1757.151376  	77.577378 
1759.080192  	77.518700 
1761.009008  	77.446128 
1762.937824  	77.574184 
1764.866640  	77.616485 
1766.795456  	77.547998 
1768.724272  	77.412227 
1770.653088  	77.205622 
1772.581904  	77.295598 
1774.510720  	77.404508 
1776.439536  	77.451816 
1778.368352  	77.420922 
1780.297168  	77.387721 
1782.225984  	77.393480 
1784.154800  	77.344336 
1786.083616  	77.403080 
1788.012432  	77.346467 
1789.941248  	77.173989 
1791.870064  	77.125212 
1793.798880  	77.256730 
1795.727696  	77.251603 
1797.656512  	77.176053 
1799.585328  	77.099400 
1801.514144  	77.201263 
1803.442960  	77.284343 
1805.371776  	77.258600 
1807.300592  	77.175902 
1809.229408  	77.116069 
1811.158224  	77.142896 
1813.087040  	77.163043 
1815.015856  	77.126468 
1816.944672  	77.195159 
1818.873488  	77.220050 
1820.802304  	77.195249 
1822.731120  	77.104561 
1824.659936  	77.088859 
1826.588752  	77.127333 
1828.517568  	77.015306 
1830.446384  	76.993768 
1832.375200  	77.060422 
1834.304016  	77.056699 
1836.232832  	77.055257 
1838.161648  	77.095567 
1840.090464  	77.036186 
1842.019280  	76.835615 
1843.948096  	76.942570 
1845.876912  	77.068222 
1847.805728  	77.079000 
1849.734544  	77.160219 
1851.663360  	77.113155 
1853.592176  	77.026690 
1855.520992  	76.940626 
1857.449808  	76.993078 
1859.378624  	77.038830 
1861.307440  	76.975192 
1863.236256  	76.980411 
1865.165072  	76.962150 
1867.093888  	76.908829 
1869.022704  	76.938035 
1870.951520  	76.949913 
1872.880336  	76.986481 
1874.809152  	77.001178 
1876.737968  	76.933586 
1878.666784  	76.902972 
1880.595600  	76.913886 
1882.524416  	76.897294 
1884.453232  	76.969249 
1886.382048  	76.978866 
1888.310864  	76.913020 
1890.239680  	76.940789 
1892.168496  	76.898561 
1894.097312  	76.860956 
1896.026128  	76.815233 
1897.954944  	76.824231 
1899.883760  	76.784193 
1901.812576  	76.844128 
1903.741392  	76.885649 
1905.670208  	77.019039 
1907.599024  	76.878235 
1909.527840  	76.830526 
1911.456656  	76.956187 
1913.385472  	76.958495 
1915.314288  	76.837168 
1917.243104  	76.780530 
1919.171920  	76.914754 
1921.100736  	77.014766 
1923.029552  	77.103275 
1924.958368  	77.070408 
1926.887184  	77.026489 
1928.816000  	76.987368 
1930.744816  	76.851499 
1932.673632  	76.873780 
1934.602448  	76.941809 
1936.531264  	77.044564 
1938.460080  	77.254161 
1940.388896  	77.255144 
1942.317712  	77.127102 
1944.246528  	77.120112 
1946.175344  	77.029265 
1948.104160  	77.098277 
1950.032976  	77.026439 
1951.961792  	76.981221 
1953.890608  	76.977812 
1955.819424  	77.186812 
1957.748240  	77.426602 
1959.677056  	77.546937 
1961.605872  	77.692117 
1963.534688  	77.313833 
1965.463504  	77.338238 
1967.392320  	77.956740 
1969.321136  	77.954740 
1971.249952  	77.364986 
1973.178768  	77.194882 
1975.107584  	77.295955 
1977.036400  	77.529809 
1978.965216  	77.376209 
1980.894032  	77.328502 
1982.822848  	77.601205 
1984.751664  	77.676191 
1986.680480  	77.589981 
1988.609296  	77.449068 
1990.538112  	77.334746 
1992.466928  	77.266356 
1994.395744  	77.132016 
1996.324560  	76.887047 
1998.253376  	77.158866 
2000.182192  	77.580247 
2002.111008  	77.556056 
2004.039824  	77.322875 
2005.968640  	77.246061 
2007.897456  	77.020403 
2009.826272  	76.788915 
2011.755088  	77.339304 
2013.683904  	77.592183 
2015.612720  	77.377434 
2017.541536  	77.166697 
2019.470352  	76.928295 
2021.399168  	77.064161 
2023.327984  	77.148166 
2025.256800  	77.211873 
2027.185616  	77.106329 
2029.114432  	77.157607 
2031.043248  	77.359795 
2032.972064  	77.271888 
2034.900880  	77.132660 
2036.829696  	76.651185 
2038.758512  	76.538145 
2040.687328  	77.025819 
2042.616144  	76.941542 
2044.544960  	76.768842 
2046.473776  	76.650973 
2048.402592  	76.205339 
2050.331408  	76.102893 
2052.260224  	76.424744 
2054.189040  	76.486864 
2056.117856  	76.283061 
2058.046672  	75.925069 
2059.975488  	75.988605 
2061.904304  	75.990412 
2063.833120  	75.938873 
2065.761936  	76.081340 
2067.690752  	76.117824 
2069.619568  	75.893759 
2071.548384  	75.904155 
2073.477200  	75.930766 
2075.406016  	75.891086 
2077.334832  	75.810081 
2079.263648  	75.615675 
2081.192464  	75.564793 
2083.121280  	75.510592 
2085.050096  	75.670078 
2086.978912  	75.769178 
2088.907728  	75.651953 
2090.836544  	75.722961 
2092.765360  	75.692718 
2094.694176  	75.752164 
2096.622992  	75.793386 
2098.551808  	75.671018 
2100.480624  	75.717513 
2102.409440  	75.634372 
2104.338256  	75.514448 
2106.267072  	75.519128 
2108.195888  	75.448995 
2110.124704  	75.459772 
2112.053520  	75.362647 
2113.982336  	75.223940 
2115.911152  	75.239733 
2117.839968  	75.272060 
2119.768784  	75.414834 
2121.697600  	75.393506 
2123.626416  	75.342983 
2125.555232  	75.367816 
2127.484048  	75.438111 
2129.412864  	75.592821 
2131.341680  	75.591855 
2133.270496  	75.661553 
2135.199312  	75.670203 
2137.128128  	75.738754 
2139.056944  	76.019950 
2140.985760  	76.246416 
2142.914576  	75.840497 
2144.843392  	75.577464 
2146.772208  	76.169928 
2148.701024  	76.205871 
2150.629840  	76.087873 
2152.558656  	76.636141 
2154.487472  	76.966316 
2156.416288  	76.852276 
2158.345104  	76.724258 
2160.273920  	76.564525 
2162.202736  	75.892801 
2164.131552  	75.700356 
2166.060368  	75.799920 
2167.989184  	75.731341 
2169.918000  	75.519255 
2171.846816  	75.614460 
2173.775632  	76.058937 
2175.704448  	76.078338 
2177.633264  	75.892279 
2179.562080  	75.811112 
2181.490896  	75.631392 
2183.419712  	75.217241 
2185.348528  	75.281746 
2187.277344  	75.466304 
2189.206160  	75.584920 
2191.134976  	75.495309 
2193.063792  	75.424554 
2194.992608  	75.563081 
2196.921424  	75.600716 
2198.850240  	75.834450 
2200.779056  	75.431630 
2202.707872  	75.230392 
2204.636688  	75.310845 
2206.565504  	75.380972 
2208.494320  	75.355612 
2210.423136  	75.160250 
2212.351952  	75.165729 
2214.280768  	75.154096 
2216.209584  	74.965868 
2218.138400  	75.044288 
2220.067216  	75.325506 
2221.996032  	75.214640 
2223.924848  	75.178650 
2225.853664  	75.083741 
2227.782480  	74.724194 
2229.711296  	74.929026 
2231.640112  	75.167044 
2233.568928  	74.945110 
2235.497744  	74.644323 
2237.426560  	74.845605 
2239.355376  	74.904156 
2241.284192  	74.762664 
2243.213008  	74.854944 
2245.141824  	74.835756 
2247.070640  	74.505303 
2248.999456  	74.432953 
2250.928272  	74.583759 
2252.857088  	74.681404 
2254.785904  	74.580924 
2256.714720  	74.592742 
2258.643536  	74.703166 
2260.572352  	74.637386 
2262.501168  	74.695961 
2264.429984  	74.675778 
2266.358800  	74.669130 
2268.287616  	74.459060 
2270.216432  	74.397648 
2272.145248  	74.648139 
2274.074064  	74.615170 
2276.002880  	74.419023 
2277.931696  	74.447738 
2279.860512  	74.312667 
2281.789328  	73.975352 
2283.718144  	74.007103 
2285.646960  	74.183774 
2287.575776  	74.221162 
2289.504592  	74.277540 
2291.433408  	74.435597 
2293.362224  	74.447656 
2295.291040  	74.460316 
2297.219856  	74.533905 
2299.148672  	74.628277 
2301.077488  	74.739220 
2303.006304  	74.759405 
2304.935120  	74.880604 
2306.863936  	75.054790 
2308.792752  	75.253317 
2310.721568  	75.341982 
2312.650384  	75.432065 
2314.579200  	75.491283 
2316.508016  	75.538145 
2318.436832  	75.729506 
2320.365648  	76.031128 
2322.294464  	76.305923 
2324.223280  	76.422459 
2326.152096  	76.638450 
2328.080912  	76.898124 
2330.009728  	77.079796 
2331.938544  	77.083631 
2333.867360  	77.066165 
2335.796176  	77.348905 
2337.724992  	77.641878 
2339.653808  	77.463933 
2341.582624  	77.389171 
2343.511440  	77.486087 
2345.440256  	77.190388 
2347.369072  	76.440970 
2349.297888  	75.988556 
2351.226704  	76.292930 
2353.155520  	77.257618 
2355.084336  	78.397912 
2357.013152  	79.084956 
2358.941968  	79.242071 
2360.870784  	79.220748 
2362.799600  	78.740201 
2364.728416  	78.534911 
2366.657232  	78.221633 
2368.586048  	77.657661 
2370.514864  	77.006329 
2372.443680  	76.440558 
2374.372496  	75.818043 
2376.301312  	75.309097 
2378.230128  	74.881909 
2380.158944  	74.436343 
2382.087760  	74.066643 
2384.016576  	73.891129 
2385.945392  	73.676080 
2387.874208  	73.442087 
2389.803024  	73.314764 
2391.731840  	73.287870 
2393.660656  	73.231953 
2395.589472  	73.169748 
2397.518288  	73.305659 
2399.447104  	73.357700 
2401.375920  	73.302528 
2403.304736  	73.184015 
2405.233552  	73.155016 
2407.162368  	73.206239 
2409.091184  	73.120714 
2411.020000  	73.018084 
2412.948816  	73.025919 
2414.877632  	73.033364 
2416.806448  	73.047045 
2418.735264  	73.064225 
2420.664080  	73.100900 
2422.592896  	73.120637 
2424.521712  	73.009466 
2426.450528  	73.034214 
2428.379344  	73.154023 
2430.308160  	73.099264 
2432.236976  	72.996000 
2434.165792  	72.994202 
2436.094608  	72.966559 
2438.023424  	72.922410 
2439.952240  	72.924364 
2441.881056  	72.902743 
2443.809872  	72.891350 
2445.738688  	72.902930 
2447.667504  	72.881590 
2449.596320  	72.860199 
2451.525136  	72.858190 
2453.453952  	72.806746 
2455.382768  	72.759707 
2457.311584  	72.732339 
2459.240400  	72.753375 
2461.169216  	72.781852 
2463.098032  	72.748753 
2465.026848  	72.645752 
2466.955664  	72.562984 
2468.884480  	72.556333 
2470.813296  	72.572006 
2472.742112  	72.581611 
2474.670928  	72.594510 
2476.599744  	72.594642 
2478.528560  	72.633158 
2480.457376  	72.536770 
2482.386192  	72.418878 
2484.315008  	72.471343 
2486.243824  	72.489060 
2488.172640  	72.472225 
2490.101456  	72.460671 
2492.030272  	72.461989 
2493.959088  	72.488901 
2495.887904  	72.408790 
2497.816720  	72.264702 
2499.745536  	72.182348 
2501.674352  	72.151681 
2503.603168  	72.175898 
2505.531984  	72.223351 
2507.460800  	72.241409 
2509.389616  	72.272372 
2511.318432  	72.223952 
2513.247248  	72.117770 
2515.176064  	72.006200 
2517.104880  	72.033360 
2519.033696  	72.087831 
2520.962512  	71.995326 
2522.891328  	71.962297 
2524.820144  	72.005575 
2526.748960  	71.974732 
2528.677776  	71.928533 
2530.606592  	71.859341 
2532.535408  	71.830123 
2534.464224  	71.845682 
2536.393040  	71.946867 
2538.321856  	71.992504 
2540.250672  	71.930981 
2542.179488  	71.851835 
2544.108304  	71.765125 
2546.037120  	71.744261 
2547.965936  	71.722453 
2549.894752  	71.676341 
2551.823568  	71.582472 
2553.752384  	71.572505 
2555.681200  	71.630121 
2557.610016  	71.649706 
2559.538832  	71.553827 
2561.467648  	71.554439 
2563.396464  	71.568924 
2565.325280  	71.523569 
2567.254096  	71.522577 
2569.182912  	71.520709 
2571.111728  	71.424641 
2573.040544  	71.343335 
2574.969360  	71.399401 
2576.898176  	71.457272 
2578.826992  	71.342071 
2580.755808  	71.226571 
2582.684624  	71.196019 
2584.613440  	71.136248 
2586.542256  	71.144924 
2588.471072  	71.189724 
2590.399888  	71.206574 
2592.328704  	71.129732 
2594.257520  	71.099015 
2596.186336  	71.018513 
2598.115152  	70.991150 
2600.043968  	70.988754 
2601.972784  	70.903027 
2603.901600  	70.848567 
2605.830416  	70.867373 
2607.759232  	70.795171 
2609.688048  	70.666650 
2611.616864  	70.631452 
2613.545680  	70.615340 
2615.474496  	70.609505 
2617.403312  	70.628873 
2619.332128  	70.611582 
2621.260944  	70.571747 
2623.189760  	70.560148 
2625.118576  	70.529062 
2627.047392  	70.516298 
2628.976208  	70.530904 
2630.905024  	70.466857 
2632.833840  	70.362056 
2634.762656  	70.302701 
2636.691472  	70.317191 
2638.620288  	70.339204 
2640.549104  	70.331108 
2642.477920  	70.313238 
2644.406736  	70.291493 
2646.335552  	70.264982 
2648.264368  	70.241657 
2650.193184  	70.232936 
2652.122000  	70.208758 
2654.050816  	70.147518 
2655.979632  	70.157410 
2657.908448  	70.179904 
2659.837264  	70.175433 
2661.766080  	70.135235 
2663.694896  	70.106618 
2665.623712  	70.085047 
2667.552528  	70.025317 
2669.481344  	69.993565 
2671.410160  	70.003937 
2673.338976  	69.955480 
2675.267792  	69.908809 
2677.196608  	69.858442 
2679.125424  	69.817990 
2681.054240  	69.782600 
2682.983056  	69.783859 
2684.911872  	69.743054 
2686.840688  	69.720741 
2688.769504  	69.723736 
2690.698320  	69.708076 
2692.627136  	69.677329 
2694.555952  	69.645724 
2696.484768  	69.599605 
2698.413584  	69.558578 
2700.342400  	69.574860 
2702.271216  	69.580056 
2704.200032  	69.542590 
2706.128848  	69.474508 
2708.057664  	69.401770 
2709.986480  	69.374326 
2711.915296  	69.383044 
2713.844112  	69.343231 
2715.772928  	69.302529 
2717.701744  	69.323474 
2719.630560  	69.326266 
2721.559376  	69.330437 
2723.488192  	69.261327 
2725.417008  	69.201032 
2727.345824  	69.211286 
2729.274640  	69.185663 
2731.203456  	69.156570 
2733.132272  	69.136545 
2735.061088  	69.126213 
2736.989904  	69.053209 
2738.918720  	68.977565 
2740.847536  	68.971889 
2742.776352  	68.942859 
2744.705168  	68.916622 
2746.633984  	68.881749 
2748.562800  	68.896544 
2750.491616  	68.899983 
2752.420432  	68.840982 
2754.349248  	68.805139 
2756.278064  	68.771363 
2758.206880  	68.742598 
2760.135696  	68.755048 
2762.064512  	68.746676 
2763.993328  	68.711251 
2765.922144  	68.683988 
2767.850960  	68.615321 
2769.779776  	68.558337 
2771.708592  	68.535143 
2773.637408  	68.551940 
2775.566224  	68.516370 
2777.495040  	68.458353 
2779.423856  	68.416308 
2781.352672  	68.385101 
2783.281488  	68.325720 
2785.210304  	68.279902 
2787.139120  	68.252067 
2789.067936  	68.235819 
2790.996752  	68.204557 
2792.925568  	68.126120 
2794.854384  	68.083074 
2796.783200  	68.049071 
2798.712016  	68.005819 
2800.640832  	67.952816 
2802.569648  	67.897825 
2804.498464  	67.817831 
2806.427280  	67.769510 
2808.356096  	67.714311 
2810.284912  	67.590944 
2812.213728  	67.487069 
2814.142544  	67.450262 
2816.071360  	67.410805 
2818.000176  	67.384515 
2819.928992  	67.336253 
2821.857808  	67.247761 
2823.786624  	67.145148 
2825.715440  	67.095352 
2827.644256  	67.085903 
2829.573072  	67.036558 
2831.501888  	66.965467 
2833.430704  	66.936066 
2835.359520  	66.906743 
2837.288336  	66.840918 
2839.217152  	66.782698 
2841.145968  	66.732315 
2843.074784  	66.703050 
2845.003600  	66.727788 
2846.932416  	66.728284 
2848.861232  	66.731586 
2850.790048  	66.740315 
2852.718864  	66.748926 
2854.647680  	66.730729 
2856.576496  	66.815829 
2858.505312  	66.870139 
2860.434128  	66.894916 
2862.362944  	66.945354 
2864.291760  	67.041818 
2866.220576  	67.128915 
2868.149392  	67.246071 
2870.078208  	67.348309 
2872.007024  	67.370559 
2873.935840  	67.352680 
2875.864656  	67.394584 
2877.793472  	67.562312 
2879.722288  	67.754662 
2881.651104  	67.964797 
2883.579920  	67.977157 
2885.508736  	67.817708 
2887.437552  	67.749220 
2889.366368  	67.610735 
2891.295184  	67.287657 
2893.224000  	66.928652 
2895.152816  	66.633950 
2897.081632  	66.419403 
2899.010448  	66.171483 
2900.939264  	65.923079 
2902.868080  	65.719268 
2904.796896  	65.546834 
2906.725712  	65.432688 
2908.654528  	65.280013 
2910.583344  	65.202981 
2912.512160  	65.238550 
2914.440976  	65.328087 
2916.369792  	65.421019 
2918.298608  	65.406831 
2920.227424  	65.385441 
2922.156240  	65.452802 
2924.085056  	65.507108 
2926.013872  	65.572222 
2927.942688  	65.592472 
2929.871504  	65.635604 
2931.800320  	65.668336 
2933.729136  	65.593126 
2935.657952  	65.535884 
2937.586768  	65.602526 
2939.515584  	65.648724 
2941.444400  	65.748404 
2943.373216  	66.077777 
2945.302032  	66.579357 
2947.230848  	67.082755 
2949.159664  	67.512804 
2951.088480  	68.140863 
2953.017296  	68.869279 
2954.946112  	69.532131 
2956.874928  	70.172873 
2958.803744  	70.770349 
2960.732560  	71.330216 
2962.661376  	71.910126 
2964.590192  	72.538772 
2966.519008  	73.119124 
2968.447824  	73.816235 
2970.376640  	74.819794 
2972.305456  	74.988239 
2974.234272  	74.725644 
2976.163088  	75.067008 
2978.091904  	75.990181 
2980.020720  	77.001891 
2981.949536  	76.758894 
2983.878352  	74.692967 
2985.807168  	73.201682 
2987.735984  	72.688802 
2989.664800  	72.312839 
2991.593616  	71.934840 
2993.522432  	71.571989 
2995.451248  	71.258651 
2997.380064  	70.838107 
2999.308880  	70.353312 
3001.237696  	69.864569 
3003.166512  	69.340538 
3005.095328  	68.657661 
3007.024144  	67.983705 
3008.952960  	67.438990 
3010.881776  	66.992397 
3012.810592  	66.666069 
3014.739408  	66.514267 
3016.668224  	66.310256 
3018.597040  	66.067768 
3020.525856  	65.852247 
3022.454672  	65.729517 
3024.383488  	65.690942 
3026.312304  	65.612431 
3028.241120  	65.439735 
3030.169936  	65.370474 
3032.098752  	65.338998 
3034.027568  	65.230014 
3035.956384  	65.168082 
3037.885200  	65.152968 
3039.814016  	65.076091 
3041.742832  	64.965459 
3043.671648  	64.906070 
3045.600464  	64.866830 
3047.529280  	64.807797 
3049.458096  	64.780449 
3051.386912  	64.652327 
3053.315728  	64.495626 
3055.244544  	64.424203 
3057.173360  	64.459394 
3059.102176  	64.424737 
3061.030992  	64.430240 
3062.959808  	64.333761 
3064.888624  	64.258738 
3066.817440  	64.242387 
3068.746256  	64.212000 
3070.675072  	64.107457 
3072.603888  	64.054724 
3074.532704  	63.989339 
3076.461520  	63.883059 
3078.390336  	63.700898 
3080.319152  	63.638470 
3082.247968  	63.685706 
3084.176784  	63.721012 
3086.105600  	63.622258 
3088.034416  	63.517865 
3089.963232  	63.483448 
3091.892048  	63.447073 
3093.820864  	63.409993 
3095.749680  	63.350311 
3097.678496  	63.207825 
3099.607312  	63.121669 
3101.536128  	63.092345 
3103.464944  	63.019603 
3105.393760  	62.856368 
3107.322576  	62.753421 
3109.251392  	62.821945 
3111.180208  	62.836129 
3113.109024  	62.707565 
3115.037840  	62.655578 
3116.966656  	62.575154 
3118.895472  	62.507070 
3120.824288  	62.405437 
3122.753104  	62.401493 
3124.681920  	62.345018 
3126.610736  	62.216502 
3128.539552  	61.974063 
3130.468368  	61.855659 
3132.397184  	61.901144 
3134.326000  	61.921764 
3136.254816  	61.873922 
3138.183632  	61.844742 
3140.112448  	61.754589 
3142.041264  	61.660632 
3143.970080  	61.585270 
3145.898896  	61.562785 
3147.827712  	61.492950 
3149.756528  	61.475680 
3151.685344  	61.415566 
3153.614160  	61.351488 
3155.542976  	61.337219 
3157.471792  	61.158381 
3159.400608  	61.047874 
3161.329424  	61.051508 
3163.258240  	61.081162 
3165.187056  	61.040995 
3167.115872  	60.960068 
3169.044688  	60.873471 
3170.973504  	60.778054 
3172.902320  	60.797015 
3174.831136  	60.765140 
3176.759952  	60.584656 
3178.688768  	60.482396 
3180.617584  	60.455647 
3182.546400  	60.342516 
3184.475216  	60.364570 
3186.404032  	60.439844 
3188.332848  	60.358103 
3190.261664  	60.243806 
3192.190480  	60.181933 
3194.119296  	60.129984 
3196.048112  	60.063390 
3197.976928  	59.995309 
3199.905744  	59.988382 
3201.834560  	60.004625 
3203.763376  	59.950605 
3205.692192  	59.874506 
3207.621008  	59.864680 
3209.549824  	59.824237 
3211.478640  	59.762737 
3213.407456  	59.765006 
3215.336272  	59.749317 
3217.265088  	59.676008 
3219.193904  	59.733564 
3221.122720  	59.694178 
3223.051536  	59.578885 
3224.980352  	59.474582 
3226.909168  	59.501125 
3228.837984  	59.498202 
3230.766800  	59.446929 
3232.695616  	59.379736 
3234.624432  	59.374518 
3236.553248  	59.373351 
3238.482064  	59.412210 
3240.410880  	59.514751 
3242.339696  	59.590050 
3244.268512  	59.552077 
3246.197328  	59.394177 
3248.126144  	59.285805 
3250.054960  	59.166659 
3251.983776  	59.215719 
3253.912592  	59.453629 
3255.841408  	59.453642 
3257.770224  	59.344309 
3259.699040  	59.306639 
3261.627856  	59.261309 
3263.556672  	59.266827 
3265.485488  	59.411266 
3267.414304  	59.389718 
3269.343120  	59.316195 
3271.271936  	59.401253 
3273.200752  	59.476700 
3275.129568  	59.398125 
3277.058384  	59.354867 
3278.987200  	59.314161 
3280.916016  	59.315380 
3282.844832  	59.368783 
3284.773648  	59.416126 
3286.702464  	59.302868 
3288.631280  	59.333399 
3290.560096  	59.398728 
3292.488912  	59.337467 
3294.417728  	59.290401 
3296.346544  	59.353999 
3298.275360  	59.461249 
3300.204176  	59.477231 
3302.132992  	59.431062 
3304.061808  	59.415552 
3305.990624  	59.474163 
3307.919440  	59.494789 
3309.848256  	59.452048 
3311.777072  	59.439798 
3313.705888  	59.524254 
3315.634704  	59.540437 
3317.563520  	59.557811 
3319.492336  	59.672601 
3321.421152  	59.746270 
3323.349968  	59.727564 
3325.278784  	59.689705 
3327.207600  	59.705260 
3329.136416  	59.773343 
3331.065232  	59.717757 
3332.994048  	59.614360 
3334.922864  	59.746349 
3336.851680  	59.860159 
3338.780496  	59.939470 
3340.709312  	59.991209 
3342.638128  	59.978365 
3344.566944  	60.082624 
3346.495760  	60.163102 
3348.424576  	60.250817 
3350.353392  	60.406104 
3352.282208  	60.353701 
3354.211024  	60.332918 
3356.139840  	60.428685 
3358.068656  	60.402618 
3359.997472  	60.421977 
3361.926288  	60.523704 
3363.855104  	60.595328 
3365.783920  	60.739777 
3367.712736  	60.836954 
3369.641552  	60.931790 
3371.570368  	61.070112 
3373.499184  	61.121837 
3375.428000  	61.144592 
3377.356816  	61.245162 
3379.285632  	61.333158 
3381.214448  	61.341510 
3383.143264  	61.380526 
3385.072080  	61.567574 
3387.000896  	61.733557 
3388.929712  	61.750134 
3390.858528  	61.766512 
3392.787344  	61.914555 
3394.716160  	62.033846 
3396.644976  	62.133956 
3398.573792  	62.277126 
3400.502608  	62.380372 
3402.431424  	62.373578 
3404.360240  	62.408929 
3406.289056  	62.716396 
3408.217872  	62.964833 
3410.146688  	63.007524 
3412.075504  	63.057417 
3414.004320  	63.212898 
3415.933136  	63.311263 
3417.861952  	63.404946 
3419.790768  	63.576670 
3421.719584  	63.796338 
3423.648400  	63.995682 
3425.577216  	64.038267 
3427.506032  	64.080131 
3429.434848  	64.111620 
3431.363664  	64.243178 
3433.292480  	64.333032 
3435.221296  	64.435963 
3437.150112  	64.462456 
3439.078928  	64.595336 
3441.007744  	64.830618 
3442.936560  	64.952617 
3444.865376  	65.037204 
3446.794192  	65.252416 
3448.723008  	65.460068 
3450.651824  	65.468194 
3452.580640  	65.503870 
3454.509456  	65.697102 
3456.438272  	65.950590 
3458.367088  	66.021014 
3460.295904  	65.959665 
3462.224720  	66.069870 
3464.153536  	66.371450 
3466.082352  	66.482637 
3468.011168  	66.476679 
3469.939984  	66.582032 
3471.868800  	66.736190 
3473.797616  	66.970393 
3475.726432  	67.044006 
3477.655248  	67.001793 
3479.584064  	67.104916 
3481.512880  	67.436574 
3483.441696  	67.698885 
3485.370512  	67.642214 
3487.299328  	67.504314 
3489.228144  	67.623240 
3491.156960  	68.019916 
3493.085776  	68.297261 
3495.014592  	68.399830 
3496.943408  	68.444747 
3498.872224  	68.407341 
3500.801040  	68.602078 
3502.729856  	68.872404 
3504.658672  	68.870067 
3506.587488  	68.932138 
3508.516304  	69.187263 
3510.445120  	69.387200 
3512.373936  	69.567898 
3514.302752  	69.579706 
3516.231568  	69.626933 
3518.160384  	69.826557 
3520.089200  	69.869512 
3522.018016  	69.929680 
3523.946832  	70.111017 
3525.875648  	70.146689 
3527.804464  	70.330048 
3529.733280  	70.537469 
3531.662096  	70.522650 
3533.590912  	70.559944 
3535.519728  	70.880796 
3537.448544  	71.095301 
3539.377360  	71.227350 
3541.306176  	71.292375 
3543.234992  	71.102722 
3545.163808  	71.204605 
3547.092624  	71.448000 
3549.021440  	71.414557 
3550.950256  	71.507837 
3552.879072  	71.673775 
3554.807888  	71.887399 
3556.736704  	71.897110 
3558.665520  	71.852250 
3560.594336  	71.748056 
3562.523152  	71.694998 
3564.451968  	71.751832 
3566.380784  	72.140449 
3568.309600  	72.407450 
3570.238416  	72.444444 
3572.167232  	72.565114 
3574.096048  	72.617897 
3576.024864  	72.515927 
3577.953680  	72.511612 
3579.882496  	72.580421 
3581.811312  	72.623102 
3583.740128  	72.687579 
3585.668944  	72.816528 
3587.597760  	73.258784 
3589.526576  	73.197075 
3591.455392  	73.082778 
3593.384208  	73.211372 
3595.313024  	73.292579 
3597.241840  	73.336581 
3599.170656  	73.277093 
3601.099472  	73.296682 
3603.028288  	73.347224 
3604.957104  	73.317588 
3606.885920  	73.450796 
3608.814736  	73.569589 
3610.743552  	73.356746 
3612.672368  	73.379866 
3614.601184  	73.516774 
3616.530000  	73.545512 
3618.458816  	73.760938 
3620.387632  	73.861940 
3622.316448  	73.934713 
3624.245264  	74.044095 
3626.174080  	74.005281 
3628.102896  	74.500256 
3630.031712  	74.928759 
3631.960528  	74.419959 
3633.889344  	74.467570 
3635.818160  	74.682604 
3637.746976  	74.712037 
3639.675792  	74.631826 
3641.604608  	74.665704 
3643.533424  	74.462283 
3645.462240  	74.287946 
3647.391056  	74.526484 
3649.319872  	75.262213 
3651.248688  	75.488691 
3653.177504  	74.995279 
3655.106320  	75.163758 
3657.035136  	75.264854 
3658.963952  	75.065982 
3660.892768  	75.066226 
3662.821584  	74.888560 
3664.750400  	74.746414 
3666.679216  	74.647774 
3668.608032  	74.457754 
3670.536848  	74.410634 
3672.465664  	74.234375 
3674.394480  	74.545433 
3676.323296  	74.916697 
3678.252112  	74.447791 
3680.180928  	74.394503 
3682.109744  	74.161174 
3684.038560  	73.996769 
3685.967376  	73.797276 
3687.896192  	73.950629 
3689.825008  	74.264196 
3691.753824  	74.171525 
3693.682640  	73.941728 
3695.611456  	73.924381 
3697.540272  	73.915018 
3699.469088  	73.890605 
3701.397904  	73.996833 
3703.326720  	73.813728 
3705.255536  	73.487073 
3707.184352  	73.381591 
3709.113168  	73.473147 
3711.041984  	73.758406 
3712.970800  	73.719179 
3714.899616  	73.454938 
3716.828432  	73.530878 
3718.757248  	73.490618 
3720.686064  	73.338792 
3722.614880  	73.405896 
3724.543696  	73.445808 
3726.472512  	73.539315 
3728.401328  	73.305817 
3730.330144  	73.094971 
3732.258960  	73.069319 
3734.187776  	73.191465 
3736.116592  	73.457923 
3738.045408  	73.063206 
3739.974224  	72.942379 
3741.903040  	72.865110 
3743.831856  	73.246702 
3745.760672  	73.152582 
3747.689488  	72.723268 
3749.618304  	72.949777 
3751.547120  	73.433399 
3753.475936  	73.145793 
3755.404752  	72.749140 
3757.333568  	72.721526 
3759.262384  	72.927854 
3761.191200  	72.953866 
3763.120016  	72.714788 
3765.048832  	72.788725 
3766.977648  	72.674466 
3768.906464  	72.801621 
3770.835280  	72.939855 
3772.764096  	72.783298 
3774.692912  	72.750467 
3776.621728  	72.716748 
3778.550544  	72.863555 
3780.479360  	72.908709 
3782.408176  	72.633948 
3784.336992  	72.690815 
3786.265808  	72.644549 
3788.194624  	72.516452 
3790.123440  	72.490773 
3792.052256  	72.544376 
3793.981072  	72.434303 
3795.909888  	72.466140 
3797.838704  	72.274268 
3799.767520  	72.218098 
3801.696336  	72.796535 
3803.625152  	72.495498 
3805.553968  	72.323357 
3807.482784  	72.561566 
3809.411600  	72.363315 
3811.340416  	72.301561 
3813.269232  	72.162353 
3815.198048  	72.359757 
3817.126864  	72.374074 
3819.055680  	72.134530 
3820.984496  	72.712049 
3822.913312  	72.607848 
3824.842128  	72.312074 
3826.770944  	72.312133 
3828.699760  	72.014989 
3830.628576  	71.841544 
3832.557392  	71.806679 
3834.486208  	71.673503 
3836.415024  	71.711376 
3838.343840  	72.092289 
3840.272656  	72.180868 
3842.201472  	72.019559 
3844.130288  	71.998905 
3846.059104  	71.817346 
3847.987920  	71.608975 
3849.916736  	71.512640 
3851.845552  	71.747802 
3853.774368  	72.578067 
3855.703184  	72.132907 
3857.632000  	71.859362 
3859.560816  	71.693968 
3861.489632  	71.689611 
3863.418448  	71.657991 
3865.347264  	71.768972 
3867.276080  	71.529878 
3869.204896  	71.820088 
3871.133712  	71.927255 
3873.062528  	71.792576 
3874.991344  	71.906454 
3876.920160  	71.659001 
3878.848976  	71.719713 
3880.777792  	71.981148 
3882.706608  	71.677978 
3884.635424  	71.808827 
3886.564240  	71.948837 
3888.493056  	71.533872 
3890.421872  	71.628230 
3892.350688  	71.730229 
3894.279504  	71.543367 
3896.208320  	71.330945 
3898.137136  	71.281281 
3900.065952  	71.427790 
3901.994768  	71.574732 
3903.923584  	71.814943 
3905.852400  	71.788120 
3907.781216  	71.675613 
3909.710032  	71.697831 
3911.638848  	71.636815 
3913.567664  	71.481598 
3915.496480  	71.455867 
3917.425296  	71.529216 
3919.354112  	71.535609 
3921.282928  	71.489359 
3923.211744  	71.489080 
3925.140560  	71.516109 
3927.069376  	71.373307 
3928.998192  	71.383169 
3930.927008  	71.469041 
3932.855824  	71.539679 
3934.784640  	71.517042 
3936.713456  	71.523481 
3938.642272  	71.463836 
3940.571088  	71.348265 
3942.499904  	71.345064 
3944.428720  	71.359940 
3946.357536  	71.239740 
3948.286352  	71.328914 
3950.215168  	71.505482 
3952.143984  	71.490315 
3954.072800  	71.471441 
3956.001616  	71.406392 
3957.930432  	71.250319 
3959.859248  	71.207604 
3961.788064  	71.317466 
3963.716880  	71.393982 
3965.645696  	71.324537 
3967.574512  	71.357333 
3969.503328  	71.396139 
3971.432144  	71.305863 
3973.360960  	71.233813 
3975.289776  	71.317664 
3977.218592  	71.327316 
3979.147408  	71.246307 
3981.076224  	71.215835 
3983.005040  	71.266111 
3984.933856  	71.227657 
3986.862672  	71.108721 
3988.791488  	71.092085 
3990.720304  	71.152738 
3992.649120  	71.121415 
3994.577936  	71.029440 
3996.506752  	71.046150 
3998.435568  	71.113891 
4000.364384  	71.116566 